displacement 	force 	time
0.000000000000000000e+00	0.000000000000000000e+00	0.000000000000000000e+00
4.279784370964920805e-07	4.279784259042237142e-07	4.004004004004003969e-02
6.838657878059656681e-06	6.838633879529862964e-06	8.008008008008007939e-02
3.456543258632084137e-05	3.456483828590331542e-05	1.201201201201201191e-01
1.090341241821414037e-04	1.090282378393032248e-04	1.601601601601601588e-01
2.656000876320269654e-04	2.655651710492800961e-04	2.002002002002001846e-01
5.493375486436930877e-04	5.491881982391109323e-04	2.402402402402402382e-01
1.014781949165357395e-03	1.014272377015547561e-03	2.802802802802802917e-01
1.725626504430706910e-03	1.724153339475463335e-03	3.203203203203203175e-01
2.754374198828516123e-03	2.750622269652458225e-03	3.603603603603603434e-01
4.181946693583234870e-03	4.173301824327832477e-03	4.004004004004003692e-01
6.097251897384901344e-03	6.078886859338009097e-03	4.404404404404404505e-01
8.596712243590095420e-03	8.560234632216535966e-03	4.804804804804804763e-01
1.178375602522512347e-02	1.171529106782252805e-02	5.205205205205205576e-01
1.576827446066320776e-02	1.564584278866751332e-02	5.605605605605605835e-01
2.066604749543144576e-02	2.045608898313247201e-02	6.006006006006006093e-01
2.659814161220366499e-02	2.625103259808792347e-02	6.406406406406406351e-01
3.369028344046074569e-02	3.313469770738119990e-02	6.806806806806806609e-01
4.207221308447609692e-02	4.120818738010039589e-02	7.207207207207206867e-01
5.187702147860079327e-02	5.056760537153087709e-02	7.607607607607607125e-01
6.324047646714037185e-02	6.130187482655358872e-02	8.008008008008007383e-01
7.630034229149233738e-02	7.349049601592651249e-02	8.408408408408408752e-01
9.119569727298064421e-02	8.720129414120761369e-02	8.808808808808809010e-01
1.080662548312520121e-01	1.024882175193976702e-01	9.209209209209209268e-01
1.270516925254762119e-01	1.193892519483219228e-01	9.609609609609609526e-01
1.482909940023010853e-01	1.379245226575795125e-01	1.001001001001001089e+00
1.719218083151120846e-01	1.580946566643751938e-01	1.041041041041041115e+00
1.980798305770183343e-01	1.798794767811005835e-01	1.081081081081081141e+00
2.268982074192733289e-01	2.032370941082753679e-01	1.121121121121121167e+00
2.585069704009670399e-01	2.281034577460199497e-01	1.161161161161161193e+00
2.930324993344332052e-01	2.543924080617007699e-01	1.201201201201201219e+00
3.305970171500129395e-01	2.819962648657131088e-01	1.241241241241241244e+00
3.713181167982386177e-01	3.107869637429342968e-01	1.281281281281281270e+00
4.153083198988423708e-01	3.406177341664659575e-01	1.321321321321321296e+00
4.626746660214900997e-01	3.713252921752650537e-01	1.361361361361361322e+00
5.135183306763422273e-01	4.027324995571537891e-01	1.401401401401401348e+00
5.679342693573250500e-01	4.346514218581609690e-01	1.441441441441441373e+00
6.260108843525167277e-01	4.668867002856393333e-01	1.481481481481481399e+00
6.878297105477173545e-01	4.992391386216236127e-01	1.521521521521521425e+00
7.534651161215587534e-01	5.315093963733876770e-01	1.561561561561561451e+00
8.229840138666854044e-01	5.635016742863858674e-01	1.601601601601601477e+00
8.964455788845977491e-01	5.950272783336196802e-01	1.641641641641641725e+00
9.739009686053204939e-01	6.259079531995951351e-01	1.681681681681681750e+00
1.055393041426021083e+00	6.559788862688236133e-01	1.721721721721721776e+00
1.140956070871588679e+00	6.850912964199747934e-01	1.761761761761761802e+00
1.230615452597955128e+00	7.131145410790342698e-01	1.801801801801801828e+00
1.324387402572515304e+00	7.399376931472678720e-01	1.841841841841841854e+00
1.422278645553800347e+00	7.654705617084327507e-01	1.881881881881881879e+00
1.524286093579611645e+00	7.896441521791787155e-01	1.921921921921921905e+00
1.630396515188241358e+00	8.124105836518450419e-01	1.961961961961961931e+00
1.740586197322957052e+00	8.337424961189245920e-01	2.002002002002002179e+00
1.854820601610102759e+00	8.536320035241115045e-01	2.042042042042042205e+00
1.973054018700739043e+00	8.720892540503784041e-01	2.082082082082082231e+00
2.095229223569239352e+00	8.891406762881368664e-01	2.122122122122122256e+00
2.221277136298956734e+00	9.048269874755219266e-01	2.162162162162162282e+00
2.351116492271263070e+00	9.192010495572884299e-01	2.202202202202202308e+00
2.484653526329553053e+00	9.323256499192645874e-01	2.242242242242242334e+00
2.621781675525840516e+00	9.442712821480641061e-01	2.282282282282282360e+00
2.762381304618158229e+00	9.551139945779553164e-01	2.322322322322322385e+00
2.906319458691267510e+00	9.649333610954935470e-01	2.362362362362362411e+00
3.053449646843364729e+00	9.738106204791773246e-01	2.402402402402402437e+00
3.203611660352660984e+00	9.818270187491828782e-01	2.442442442442442463e+00
3.356631428612358192e+00	9.890623744795054018e-01	2.482482482482482489e+00
3.512320915547707756e+00	9.955938784861846358e-01	2.522522522522522515e+00
3.670478058605994853e+00	1.001495129858121391e+00	2.562562562562562540e+00
3.830886752293757969e+00	1.006835398130003556e+00	2.602602602602602566e+00
3.993316877452838476e+00	1.011679098755048134e+00	2.642642642642642592e+00
4.157524377178059005e+00	1.016085461997389139e+00	2.682682682682682618e+00
4.323251379998199972e+00	1.020108370039729095e+00	2.722722722722722644e+00
4.490226370236533704e+00	1.023796340663766236e+00	2.762762762762762669e+00
4.658164405653883122e+00	1.027192627598562780e+00	2.802802802802802695e+00
4.826767381648092936e+00	1.030335417181701629e+00	2.842842842842842721e+00
4.995724341490846321e+00	1.033258093745784922e+00	2.882882882882882747e+00
5.164711831762210714e+00	1.035989555942660623e+00	2.922922922922922773e+00
5.333394301622306877e+00	1.038554563890106586e+00	2.962962962962962798e+00
5.501424545156541335e+00	1.040974101202954749e+00	3.003003003003002824e+00
5.668444185257863310e+00	1.043265740486396531e+00	3.043043043043042850e+00
5.834084197689255902e+00	1.045444001187565419e+00	3.083083083083082876e+00
5.997965473867525432e+00	1.047520692286931787e+00	3.123123123123122902e+00
6.159699420987537088e+00	1.049505234762854844e+00	3.163163163163162928e+00
6.318888597884190439e+00	1.051404960287426027e+00	3.203203203203202953e+00
6.475127385017006354e+00	1.053225384229609318e+00	3.243243243243243423e+00
6.628002686990274839e+00	1.054970452340874498e+00	3.283283283283283449e+00
6.777094666035080373e+00	1.056642761476863424e+00	3.323323323323323475e+00
6.921977504774081247e+00	1.058243755398648567e+00	3.363363363363363501e+00
7.062220196291266738e+00	1.059773897169068002e+00	3.403403403403403527e+00
7.197387359576686627e+00	1.061232820038397584e+00	3.443443443443443552e+00
7.327040080544557021e+00	1.062619459012994927e+00	3.483483483483483578e+00
7.450736775033174553e+00	1.063932164498597510e+00	3.523523523523523604e+00
7.568034070025297488e+00	1.065168800510948310e+00	3.563563563563563630e+00
7.678487703471126302e+00	1.066326829656464525e+00	3.603603603603603656e+00
7.781653449249318122e+00	1.067403386106205998e+00	3.643643643643643681e+00
7.877088042864363260e+00	1.068395337714128646e+00	3.683683683683683707e+00
7.964350128748337809e+00	1.069299340068034621e+00	3.723723723723723733e+00
8.043001224171446140e+00	1.070111882577460261e+00	3.763763763763763759e+00
8.112606674282313080e+00	1.070829327550966159e+00	3.803803803803803785e+00
8.172736632170952475e+00	1.071447944179772627e+00	3.843843843843843811e+00
8.222967038776889837e+00	1.071963937068811878e+00	3.883883883883883836e+00
8.262880593690026032e+00	1.072373470096693593e+00	3.923923923923923862e+00
8.292067746806376149e+00	1.072672686443851831e+00	3.963963963963963888e+00
8.310127676885517900e+00	1.072857724240868338e+00	4.004004004004004358e+00
8.316669260488973592e+00	1.072924728102284453e+00	4.044044044044044384e+00
8.311312686853478127e+00	1.067550327047623426e+00	4.084084084084084409e+00
8.293698651361893326e+00	1.049936291556039292e+00	4.124124124124124435e+00
8.263498846012058863e+00	1.019736486206205939e+00	4.164164164164164461e+00
8.220418313908753660e+00	9.766559541028997371e-01	4.204204204204204487e+00
8.164196764578187882e+00	9.204344047723345135e-01	4.244244244244244513e+00
8.094609817110049121e+00	8.508474573041941991e-01	4.284284284284284539e+00
8.011470165962171208e+00	7.677078061563175071e-01	4.324324324324324564e+00
7.914628666864561346e+00	6.708663070587078670e-01	4.364364364364364590e+00
7.803975338973352827e+00	5.602129791674990145e-01	4.404404404404404616e+00
7.679440279872784991e+00	4.356779200669315122e-01	4.444444444444444642e+00
7.540994490109413917e+00	2.972321303035609374e-01	4.484484484484484668e+00
7.388650604589957815e+00	1.448882447841048915e-01	4.524524524524524693e+00
7.222463350828700612e+00	-1.701736730755622207e-02	4.564564564564564719e+00
7.042520071116267211e+00	-1.671557986082672365e-01	4.604604604604604745e+00
6.848913841044218742e+00	-3.015309229920898337e-01	4.644644644644644771e+00
6.641734702330197138e+00	-4.196170681454982065e-01	4.684684684684684797e+00
6.421069444867034903e+00	-5.216164186792979773e-01	4.724724724724724823e+00
6.187002583715692339e+00	-6.083043690916088986e-01	4.764764764764764848e+00
5.939618211167184469e+00	-6.808710318111440563e-01	4.804804804804804874e+00
5.679002466835719964e+00	-7.407716438997600239e-01	4.844844844844844900e+00
5.405246383565545543e+00	-7.895948067403751880e-01	4.884884884884884926e+00
5.118448896016110972e+00	-8.289538249496596345e-01	4.924924924924924952e+00
4.818719836244795829e+00	-8.604032086688466752e-01	4.964964964964964977e+00
4.506182781302947582e+00	-8.853798485613912916e-01	5.005005005005005003e+00
4.180977657708382367e+00	-9.051665315068148088e-01	5.045045045045045029e+00
3.843263043706172777e+00	-9.208743171430557872e-01	5.085085085085085055e+00
3.493218140651226378e+00	-9.334397612674503186e-01	5.125125125125125081e+00
3.131044408816885838e+00	-9.436329370032331409e-01	5.165165165165165106e+00
2.756966880316229052e+00	-9.520725280090929221e-01	5.205205205205205132e+00
2.371235173304762966e+00	-9.592448296591882251e-01	5.245245245245245158e+00
1.974124237920780622e+00	-9.655241562921637044e-01	5.285285285285285184e+00
1.565934866778282641e+00	-9.711928375732471475e-01	5.325325325325325210e+00
1.146994002185359296e+00	-9.764596072161748630e-01	5.365365365365365236e+00
7.176548697435279900e-01	-9.814757126098533346e-01	5.405405405405405261e+00
2.782969643765481615e-01	-9.863484799689831162e-01	5.445445445445445287e+00
-1.706740891990690123e-01	-9.911523585909775003e-01	5.485485485485485313e+00
-6.288267835550268581e-01	-9.959376482751651771e-01	5.525525525525525339e+00
-1.095704068816427679e+00	-1.000737217297534620e+00	5.565565565565565365e+00
-1.570823774917444071e+00	-1.005571549222120220e+00	5.605605605605605390e+00
-2.053679107261894288e+00	-1.010452451584551659e+00	5.645645645645645416e+00
-2.543739209288607306e+00	-1.015385726611381267e+00	5.685685685685685442e+00
-3.040449787041762164e+00	-1.020373057922796534e+00	5.725725725725725468e+00
-3.543233791806879029e+00	-1.025413321640057163e+00	5.765765765765765494e+00
-4.051492158373974917e+00	-1.030503482425490613e+00	5.805805805805805520e+00
-4.564604595816065036e+00	-1.035639198146314000e+00	5.845845845845845545e+00
-5.081930429586734022e+00	-1.040815222244656502e+00	5.885885885885885571e+00
-5.602809492738495045e+00	-1.046025670199762780e+00	5.925925925925925597e+00
-6.126563064761342936e+00	-1.051264194486249748e+00	5.965965965965965623e+00
-6.652494856325905204e+00	-1.056524099750159928e+00	6.006006006006005649e+00
-7.179892038724513981e+00	-1.061798419435936447e+00	6.046046046046045674e+00
-7.708026315994858102e+00	-1.067079967765116599e+00	6.086086086086085700e+00
-8.236155039839859526e+00	-1.072361376208821104e+00	6.126126126126125726e+00
-8.763522358332549445e+00	-1.077635120750508602e+00	6.166166166166165752e+00
-9.289360410005302882e+00	-1.082893543317687168e+00	6.206206206206205778e+00
-9.812890552979133929e+00	-1.088128869523339759e+00	6.246246246246245803e+00
-1.033332461659320600e+01	-1.093333224758733291e+00	6.286286286286285829e+00
-1.084986619966491439e+01	-1.098498649225531976e+00	6.326326326326325855e+00
-1.136171199630762985e+01	-1.103617112308257209e+00	6.366366366366365881e+00
-1.186805313228219738e+01	-1.108680526707173319e+00	6.406406406406405907e+00
-1.236807655136755457e+01	-1.113680762714474470e+00	6.446446446446446821e+00
-1.286096641339844204e+01	-1.118609662423903472e+00	6.486486486486486847e+00
-1.334590549836861229e+01	-1.123459053930347507e+00	6.526526526526526872e+00
-1.382207666015457193e+01	-1.128220765947354653e+00	6.566566566566566898e+00
-1.428866427297578312e+01	-1.132886642319413273e+00	6.606606606606606924e+00
-1.474485568474301367e+01	-1.137448556587351556e+00	6.646646646646646950e+00
-1.518984271470712244e+01	-1.141898426980420211e+00	6.686686686686686976e+00
-1.562282311995583584e+01	-1.146228231091450889e+00	6.726726726726727001e+00
-1.604300208690507290e+01	-1.150430020798031139e+00	6.766766766766767027e+00
-1.644959373723351703e+01	-1.154495937325042076e+00	6.806806806806807053e+00
-1.684182259473672261e+01	-1.158418225915414101e+00	6.846846846846847079e+00
-1.721892509620147038e+01	-1.162189250940100838e+00	6.886886886886887105e+00
-1.758015106801533989e+01	-1.165801510664882468e+00	6.926926926926927131e+00
-1.792476518651211137e+01	-1.169247651854301351e+00	6.966966966966967156e+00
-1.825204846949131721e+01	-1.172520484687113562e+00	7.007007007007007182e+00
-1.856129969556113579e+01	-1.175612996949886302e+00	7.047047047047047208e+00
-1.885183685690533650e+01	-1.178518368564771990e+00	7.087087087087087234e+00
-1.912299857046958351e+01	-1.181229985701431229e+00	7.127127127127127260e+00
-1.937414545035271018e+01	-1.183741454500987444e+00	7.167167167167167285e+00
-1.960466150583066280e+01	-1.186046615056289832e+00	7.207207207207207311e+00
-1.981395544360123040e+01	-1.188139554434376466e+00	7.247247247247247337e+00
-2.000146200311299438e+01	-1.190014620029773651e+00	7.287287287287287363e+00
-2.016664321919745007e+01	-1.191666432190824798e+00	7.327327327327327389e+00
-2.030898965409230428e+01	-1.193089896539925920e+00	7.367367367367367414e+00
-2.042802161990978149e+01	-1.194280216198212674e+00	7.407407407407407440e+00
-2.052329030394215437e+01	-1.195232903038616623e+00	7.447447447447447466e+00
-2.059437892594856478e+01	-1.195943789258736123e+00	7.487487487487487492e+00
-2.064090376760515966e+01	-1.196409037675336240e+00	7.527527527527527518e+00
-2.066251522954375375e+01	-1.196625152294737315e+00	7.567567567567567544e+00
-2.065889906466396297e+01	-1.191405469531930716e+00	7.607607607607607569e+00
-2.062978809433118954e+01	-1.162294499199159503e+00	7.647647647647647595e+00
-2.057498677709980939e+01	-1.107493181967780016e+00	7.687687687687687621e+00
-2.049437771100238237e+01	-1.026884115870349001e+00	7.727727727727727647e+00
-2.038792243320924769e+01	-9.204288380772146505e-01	7.767767767767767673e+00
-2.025566200606689193e+01	-7.881684109348581213e-01	7.807807807807807698e+00
-2.009771741447777060e+01	-6.302238193457393445e-01	7.847847847847847724e+00
-1.991428977344056150e+01	-4.467961783085316330e-01	7.887887887887887750e+00
-1.970566034354757434e+01	-2.381667484155448877e-01	7.927927927927927776e+00
-1.947218885193824534e+01	-2.181972867712059228e-02	7.967967967967967802e+00
-1.921428309377085597e+01	1.665117772485423808e-01	8.008008008008008716e+00
-1.893235164664320891e+01	3.244366221183430099e-01	8.048048048048048742e+00
-1.862679529545435386e+01	4.528797647335126575e-01	8.088088088088088767e+00
-1.829800876228040352e+01	5.544776138924422115e-01	8.128128128128128793e+00
-1.794638510327093428e+01	6.328613166896995823e-01	8.168168168168168819e+00
-1.757232162163624523e+01	6.920483608647062246e-01	8.208208208208208845e+00
-1.717622632197025467e+01	7.359850287768255894e-01	8.248248248248248871e+00
-1.675852417182641219e+01	7.682465505545535978e-01	8.288288288288288896e+00
-1.631966268852551849e+01	7.918773332225831352e-01	8.328328328328328922e+00
-1.586011659363254189e+01	8.093405861709486171e-01	8.368368368368368948e+00
-1.538039145325751456e+01	8.225430558379330792e-01	8.408408408408408974e+00
-1.488102634335018948e+01	8.329034962810466514e-01	8.448448448448449000e+00
-1.436259564998342775e+01	8.414399663654199557e-01	8.488488488488489025e+00
-1.382571014544382493e+01	8.488586045279506997e-01	8.528528528528529051e+00
-1.327101748381752877e+01	8.556335230521356916e-01	8.568568568568569077e+00
-1.269920224584017987e+01	8.620729952726553513e-01	8.608608608608609103e+00
-1.211098564099173558e+01	8.683709322460948510e-01	8.648648648648649129e+00
-1.150712495125923596e+01	8.746448992620983187e-01	8.688688688688689155e+00
-1.088841277941288510e+01	8.809629792087170230e-01	8.728728728728729180e+00
-1.025567614671782124e+01	8.873620315450295726e-01	8.768768768768769206e+00
-9.609775471117835366e+00	8.938596773717411015e-01	8.808808808808809232e+00
-8.951603446921607699e+00	9.004619240023955529e-01	8.848848848848849258e+00
-8.282083839963886973e+00	9.071678773291643738e-01	8.888888888888889284e+00
-7.602170207668761392e+00	9.139725805773869505e-01	8.928928928928929309e+00
-6.912844550170620828e+00	9.208686848952303272e-01	8.968968968968969335e+00
-6.215115897792828470e+00	9.278474127989433384e-01	9.009009009009009361e+00
-5.510018837282823156e+00	9.348991059833579031e-01	9.049049049049049387e+00
-4.798611981123776182e+00	9.420135337408118703e-01	9.089089089089089413e+00
-4.081976381807134402e+00	9.491800669843657445e-01	9.129129129129129439e+00
-3.361213893656262108e+00	9.563877787704619937e-01	9.169169169169169464e+00
-2.637445485775013143e+00	9.636255052182403080e-01	9.209209209209209490e+00
-1.911809507877903158e+00	9.708818855830384509e-01	9.249249249249249516e+00
-1.185459910252687266e+00	9.781453915395782461e-01	9.289289289289289542e+00
-4.595644243168489629e-01	9.854043512276583483e-01	9.329329329329329568e+00
2.646972958553922561e-01	9.926469707630409811e-01	9.369369369369369593e+00
9.861355684455850312e-01	9.998613546172014921e-01	9.409409409409409619e+00
1.703552610694012426e+00	1.007035525586049474e+00	9.449449449449449645e+00
2.415744495843406892e+00	1.014157444702870281e+00	9.489489489489489671e+00
3.121503135935194351e+00	1.021215031233162707e+00	9.529529529529529697e+00
3.819618288116364280e+00	1.028196182818380766e+00	9.569569569569569722e+00
4.508879580412036070e+00	1.035088795772604042e+00	9.609609609609609748e+00
5.188078553491903833e+00	1.041880785518934704e+00	9.649649649649649774e+00
5.856010715706848835e+00	1.048560107148867715e+00	9.689689689689689800e+00
6.511477609188836446e+00	1.055114776087629158e+00	9.729729729729729826e+00
7.153288879932755862e+00	1.061532888797085850e+00	9.769769769769769852e+00
7.780264352366186742e+00	1.067802643522464345e+00	9.809809809809809877e+00
8.391236097668187455e+00	1.073912360976031488e+00	9.849849849849849903e+00
8.985050503458552384e+00	1.079850505034226194e+00	9.889889889889889929e+00
9.560570335315832224e+00	1.085605703352956253e+00	9.929929929929929955e+00
1.011667678334573850e+01	1.091166767833341655e+00	9.969969969969969981e+00
1.065227148747333707e+01	1.096522714874665461e+00	1.001001001001001001e+01
1.116627855665121949e+01	1.101662785566471570e+00	1.005005005005005003e+01
1.165764655984614251e+01	1.106576465598436476e+00	1.009009009009009006e+01
1.212535048391928605e+01	1.111253504839177175e+00	1.013013013013013008e+01
1.256839366528996038e+01	1.115683936652889674e+00	1.017017017017017011e+01
1.298580969977338917e+01	1.119858096997727426e+00	1.021021021021021014e+01
1.337666429861548067e+01	1.123766642986150366e+00	1.025025025025025016e+01
1.374005710397508473e+01	1.127400571039747668e+00	1.029029029029029019e+01
1.407512348270719293e+01	1.130751234827069629e+00	1.033033033033033021e+01
1.438103624810915271e+01	1.133810362481089795e+00	1.037037037037037024e+01
1.465700733355778773e+01	1.136570073335576581e+00	1.041041041041041026e+01
1.490228943721715815e+01	1.139022894372170525e+00	1.045045045045045029e+01
1.511617757532536999e+01	1.141161775753252838e+00	1.049049049049049032e+01
