Time [s]	Force [kN]	Displacement [m]
0.000000000000000000e+00	0.000000000000000000e+00	0.000000000000000000e+00
7.956028744632249325e-10	3.977995430151914434e-10	2.002002002002001985e-02
1.281190237191846510e-08	6.405944097226666863e-09	4.004004004004003969e-02
6.492895505228990559e-08	3.246447615420347128e-08	6.006006006006005954e-02
2.050631465080630820e-07	1.025315726265064673e-07	8.008008008008007939e-02
5.001430986485846077e-07	2.500714927482335695e-07	1.001001001001000923e-01
1.036079762734922824e-06	5.180395931706035574e-07	1.201201201201201191e-01
1.917509637605210099e-06	9.587538444832103795e-07	1.401401401401401459e-01
3.267710086762481719e-06	1.633852424559942076e-06	1.601601601601601588e-01
5.228256013878057205e-06	2.614121321944105291e-06	1.801801801801801717e-01
7.958969972623379266e-06	3.979469307811097911e-06	2.002002002002001846e-01
1.163775911773555200e-05	5.818845804033323773e-06	2.202202202202202252e-01
1.646031962707230180e-05	8.230092567782472117e-06	2.402402402402402382e-01
2.263982393803554391e-05	1.131978531329339443e-05	2.602602602602602788e-01
3.040657382779794781e-05	1.520305826269290829e-05	2.802802802802802917e-01
4.000797646737786048e-05	2.000359196754828822e-05	3.003003003003003046e-01
5.170811201517980617e-05	2.585339378064843377e-05	3.203203203203203175e-01
6.578744505993566792e-05	3.289265142504386069e-05	3.403403403403403304e-01
8.254227932271222779e-05	4.126945378030741178e-05	3.603603603603603434e-01
1.022846280132337545e-04	5.113972465498799956e-05	3.803803803803803563e-01
1.253418743271102827e-04	6.266704824797222873e-05	4.004004004004003692e-01
1.520563292222318558e-04	7.602244236357075322e-05	4.204204204204204376e-01
1.827846512447518822e-04	9.138405754248431830e-05	4.404404404404404505e-01
2.178976086697238530e-04	1.089370539376994580e-04	4.604604604604604634e-01
2.577797169345656149e-04	1.288734124616785516e-04	4.804804804804804763e-01
3.028287283987929910e-04	1.513916694776570285e-04	5.005005005005005447e-01
3.534549749956784935e-04	1.766965713296479289e-04	5.205205205205205576e-01
4.100811250136966800e-04	2.049989466232327267e-04	5.405405405405405705e-01
4.731417090070452964e-04	2.365154560060751256e-04	5.605605605605605835e-01
5.430825563354204017e-04	2.714682944327492559e-04	5.805805805805805964e-01
6.203600910122038800e-04	3.100848159066187104e-04	6.006006006006006093e-01
7.054411142868138558e-04	3.525974174472601484e-04	6.206206206206206222e-01
7.988021817351625498e-04	3.992432059522247017e-04	6.406406406406406351e-01
9.009289552531322964e-04	4.502636496422530868e-04	6.606606606606606480e-01
1.012315583756743208e-03	5.059042435290679509e-04	6.806806806806806609e-01
1.133464399332677428e-03	5.664143445624938815e-04	7.007007007007006738e-01
1.264885202089434477e-03	6.320467839559732034e-04	7.207207207207206867e-01
1.407094499235852754e-03	7.030574511156153367e-04	7.407407407407406996e-01
1.560615091238855019e-03	7.797050672105951654e-04	7.607607607607607125e-01
1.725975517732010293e-03	8.622508808092154472e-04	7.807807807807807254e-01
1.903709331865179608e-03	9.509582685678411550e-04	8.008008008008007383e-01
2.094354318929815377e-03	1.046092302646818616e-03	8.208208208208208623e-01
2.298452190411602591e-03	1.147919580965757773e-03	8.408408408408408752e-01
2.516547812199153474e-03	1.256707798825682171e-03	8.608608608608608881e-01
2.749188398513180420e-03	1.372725299041420302e-03	8.808808808808809010e-01
2.996922988316541841e-03	1.496240779311376091e-03	9.009009009009009139e-01
3.260301895687784529e-03	1.627522984315498203e-03	9.209209209209209268e-01
3.539875926295495655e-03	1.766840266530092041e-03	9.409409409409409397e-01
3.836195538255010584e-03	1.914460113948009221e-03	9.609609609609609526e-01
4.149810507044728557e-03	2.070648961351306740e-03	9.809809809809809655e-01
4.481269118674587049e-03	2.235671735841061099e-03	1.001001001001001089e+00
4.831117325360081982e-03	2.409791380284775561e-03	1.021021021021021102e+00
5.199898202814921648e-03	2.593268546754231869e-03	1.041041041041041115e+00
5.588151370425259445e-03	2.786361269086609985e-03	1.061061061061061128e+00
5.996412176645347231e-03	2.989324503081556249e-03	1.081081081081081141e+00
6.425210857200888172e-03	3.202409651251307901e-03	1.101101101101101154e+00
6.875072186237213452e-03	3.425864366129602583e-03	1.121121121121121167e+00
7.346514646402240931e-03	3.659932082622068764e-03	1.141141141141141180e+00
7.840049575853975591e-03	3.904851538986210679e-03	1.161161161161161193e+00
8.356180648239019265e-03	4.160856484921174499e-03	1.181181181181181206e+00
8.895403270459307371e-03	4.428175344735481821e-03	1.201201201201201219e+00
9.458203769710524580e-03	4.707030763869384481e-03	1.221221221221221231e+00
1.004505857605812215e-02	4.997639155622641410e-03	1.241241241241241244e+00
1.065643388245563622e-02	5.300210513439604712e-03	1.261261261261261257e+00
1.129278481937513734e-02	5.614947955509062838e-03	1.281281281281281270e+00
1.195455463054898894e-02	5.942047275933552697e-03	1.301301301301301283e+00
1.264217417311414710e-02	6.281696673107074226e-03	1.321321321321321296e+00
1.335606134243580261e-02	6.634076439598905056e-03	1.341341341341341309e+00
1.409662029728750259e-02	6.999358546503977284e-03	1.361361361361361322e+00
1.486424066236848376e-02	7.377706223646249457e-03	1.381381381381381335e+00
1.565929723089311970e-02	7.769273804007404208e-03	1.401401401401401348e+00
1.648214918371677593e-02	8.174206315307767576e-03	1.421421421421421361e+00
1.733313933857068972e-02	8.592639098869817721e-03	1.441441441441441373e+00
1.821259362029447465e-02	9.024697542956884241e-03	1.461461461461461386e+00
1.912082061127713672e-02	9.470496859624109864e-03	1.481481481481481399e+00
2.005811083063097425e-02	9.930141725795236379e-03	1.501501501501501412e+00
2.102473596764817612e-02	1.040372592285072027e-02	1.521521521521521425e+00
2.202094860407757468e-02	1.089133220612707557e-02	1.541541541541541438e+00
2.304698158290000715e-02	1.139303200964665586e-02	1.561561561561561451e+00
2.410304736230715200e-02	1.190888515398897708e-02	1.581581581581581464e+00
2.518933737634040243e-02	1.243893957505134984e-02	1.601601601601601477e+00
2.630602182368810271e-02	1.298323123530701825e-02	1.621621621621621712e+00
2.745324896696445249e-02	1.354178382238171996e-02	1.641641641641641725e+00
2.863114455815293780e-02	1.411460852952094343e-02	1.661661661661661737e+00
2.983981135582524508e-02	1.470170387965557060e-02	1.681681681681681750e+00
3.107932889661213158e-02	1.530305564376011930e-02	1.701701701701701763e+00
3.234975282504026772e-02	1.591863658535758175e-02	1.721721721721721776e+00
3.365111438755746115e-02	1.654840631661640832e-02	1.741741741741741789e+00
3.498342006010302790e-02	1.719231119373438449e-02	1.761761761761761802e+00
3.634665133541104681e-02	1.785028425897363866e-02	1.781781781781781815e+00
3.774076410185727565e-02	1.852224504302911121e-02	1.801801801801801828e+00
3.916568823174194219e-02	1.920809950387560028e-02	1.821821821821821841e+00
4.062132724752621354e-02	1.990773997640279264e-02	1.841841841841841854e+00
4.210755819885955015e-02	2.062104515526980847e-02	1.861861861861861867e+00
4.362423107861310156e-02	2.134787996394359524e-02	1.881881881881881879e+00
4.517116853223843154e-02	2.208809555432233659e-02	1.901901901901901892e+00
4.674816551550238508e-02	2.284152933823923801e-02	1.921921921921921905e+00
4.835498925937142811e-02	2.360800498963250282e-02	1.941941941941941918e+00
4.999137884235103912e-02	2.438733243169708548e-02	1.961961961961961931e+00
5.165704489408354944e-02	2.517930779988168666e-02	1.981981981981981944e+00
5.335166934692700536e-02	2.598371363032324355e-02	2.002002002002002179e+00
5.507490536076722204e-02	2.680031889162293179e-02	2.022022022022022192e+00
5.682637723473614455e-02	2.762887901856664677e-02	2.042042042042042205e+00
5.860567994790680940e-02	2.846913596026748663e-02	2.062062062062062218e+00
6.041237911667780153e-02	2.932081832182961353e-02	2.082082082082082231e+00
6.224601090100354700e-02	3.018364160584177322e-02	2.102102102102102243e+00
6.410608199479699010e-02	3.105730822307686129e-02	2.122122122122122256e+00
6.599206944453260559e-02	3.194150763351909922e-02	2.142142142142142269e+00
6.790342043096092572e-02	3.283591644488753625e-02	2.162162162162162282e+00
6.983955239224844125e-02	3.374019877127429345e-02	2.182182182182182295e+00
7.179985302345026632e-02	3.465400635155780479e-02	2.202202202202202308e+00
7.378368024726252028e-02	3.557697864319196712e-02	2.222222222222222321e+00
7.579036205138241222e-02	3.650874304421294209e-02	2.242242242242242334e+00
7.781919667109743477e-02	3.744891520536786089e-02	2.262262262262262347e+00
7.986945269800795055e-02	3.839709928286622054e-02	2.282282282282282360e+00
8.194036909170762661e-02	3.935288803086178788e-02	2.302302302302302373e+00
8.403115514684629528e-02	4.031586307474714637e-02	2.322322322322322385e+00
8.614099074790146360e-02	4.128559526064062152e-02	2.342342342342342398e+00
8.826902655608942494e-02	4.226164492826538915e-02	2.362362362362362411e+00
9.041438406555468710e-02	4.324356205230132227e-02	2.382382382382382424e+00
9.257615568434719722e-02	4.423088653948354515e-02	2.402402402402402437e+00
9.475340512889628142e-02	4.522314865046411086e-02	2.422422422422422450e+00
9.694516760454030546e-02	4.621986920964234191e-02	2.442442442442442463e+00
9.915044993802482609e-02	4.722055983302466536e-02	2.462462462462462476e+00
1.013682308084654093e-01	4.822472325331910586e-02	2.482482482482482489e+00
1.035974612474163670e-01	4.923185376838052491e-02	2.502502502502502502e+00
1.058370647761519845e-01	5.024143738165434692e-02	2.522522522522522515e+00
1.080859376504559044e-01	5.125295211806392415e-02	2.542542542542542527e+00
1.103429493308357157e-01	5.226586842404030986e-02	2.562562562562562540e+00
1.126069428918779619e-01	5.327964948828833175e-02	2.582582582582582553e+00
1.148767352401049990e-01	5.429375144602746617e-02	2.602602602602602566e+00
1.171511174946520684e-01	5.530762372267689075e-02	2.622622622622622579e+00
1.194288556500385234e-01	5.632070948065271560e-02	2.642642642642642592e+00
1.217086908095772468e-01	5.733244578548222364e-02	2.662662662662662605e+00
1.239893395836044188e-01	5.834226392155034135e-02	2.682682682682682618e+00
1.262694947432834169e-01	5.934958979679404167e-02	2.702702702702702631e+00
1.285478256913422102e-01	6.035384422043024721e-02	2.722722722722722644e+00
1.308229788134250005e-01	6.135444313012275441e-02	2.742742742742742657e+00
1.330935780816132619e-01	6.235079794592775226e-02	2.762762762762762669e+00
1.353582257805580613e-01	6.334231593966074825e-02	2.782782782782782682e+00
1.376155028298948757e-01	6.432840040400496229e-02	2.802802802802802695e+00
1.398639693666191286e-01	6.530845096093182423e-02	2.822822822822822708e+00
1.421021656090113994e-01	6.628186394615093180e-02	2.842842842842842721e+00
1.443286122463282029e-01	6.724803258109121606e-02	2.862862862862862734e+00
1.465418110246211325e-01	6.820634723520589693e-02	2.882882882882882747e+00
1.487402456164033937e-01	6.915619576721566963e-02	2.902902902902902760e+00
1.509223822004707449e-01	7.009696374298170218e-02	2.922922922922922773e+00
1.530866699969769262e-01	7.102803463323391353e-02	2.942942942942942786e+00
1.552315421331686984e-01	7.194879011016185044e-02	2.962962962962962798e+00
1.573554164223283092e-01	7.285861029557670621e-02	2.982982982982982811e+00
1.594566958596045358e-01	7.375687391027020701e-02	3.003003003003002824e+00
1.615337694695258564e-01	7.464295852058527858e-02	3.023023023023022837e+00
1.635850132594230122e-01	7.551624079316898719e-02	3.043043043043042850e+00
1.656087907048469920e-01	7.637609661413641282e-02	3.063063063063062863e+00
1.676034535873469344e-01	7.722190128850695001e-02	3.083083083083082876e+00
1.695673430642431478e-01	7.805302977529532393e-02	3.103103103103102889e+00
1.714987901797004610e-01	7.886885679033409091e-02	3.123123123123122902e+00
1.733961167176954477e-01	7.966875696502906390e-02	3.143143143143142915e+00
1.752576363101869539e-01	8.045210504133386287e-02	3.163163163163162928e+00
1.770816550392373956e-01	8.121827596937575278e-02	3.183183183183182940e+00
1.788664722720107181e-01	8.196664502298804666e-02	3.203203203203202953e+00
1.806103817982498139e-01	8.269658795345113944e-02	3.223223223223223410e+00
1.823116725424903106e-01	8.340748107852916093e-02	3.243243243243243423e+00
1.839686293646655424e-01	8.409870135923847023e-02	3.263263263263263436e+00
1.855795342208769183e-01	8.476962651248676206e-02	3.283283283283283449e+00
1.871426669897431616e-01	8.541963508565326990e-02	3.303303303303303462e+00
1.886563062372315913e-01	8.604810650156267948e-02	3.323323323323323475e+00
1.901187303902089620e-01	8.665442113105117916e-02	3.343343343343343488e+00
1.915282186747289672e-01	8.723796034759380424e-02	3.363363363363363501e+00
1.928830518501514213e-01	8.779810654711048268e-02	3.383383383383383514e+00
1.941815133855273601e-01	8.833424318315928614e-02	3.403403403403403527e+00
1.954218905022802322e-01	8.884575479736891990e-02	3.423423423423423539e+00
1.966024748852703008e-01	8.933202701955809955e-02	3.443443443443443552e+00
1.977215638546430121e-01	8.979244656961662963e-02	3.463463463463463565e+00
1.987774615011735080e-01	9.022640126136527439e-02	3.483483483483483578e+00
1.997684793824854310e-01	9.063327998726629364e-02	3.503503503503503591e+00
2.006929376862055525e-01	9.101247269186095445e-02	3.523523523523523604e+00
2.015491664429079066e-01	9.136337034884298158e-02	3.543543543543543617e+00
2.023355062152779049e-01	9.168536493366911955e-02	3.563563563563563630e+00
2.030503092518985697e-01	9.197784937373364167e-02	3.583583583583583643e+00
2.036919407596440856e-01	9.224021750068764347e-02	3.603603603603603656e+00
2.042587795927927885e-01	9.247186401359792918e-02	3.623623623623623669e+00
2.047492194007650701e-01	9.267218441097826997e-02	3.643643643643643681e+00
2.051616699377346864e-01	9.284057492263117495e-02	3.663663663663663694e+00
2.054945577601160756e-01	9.297643246547404594e-02	3.683683683683683707e+00
2.057463273721768238e-01	9.307915456254803321e-02	3.703703703703703720e+00
2.059154425469547633e-01	9.314813926070536487e-02	3.723723723723723733e+00
2.060003870234552448e-01	9.318278508175809050e-02	3.743743743743743746e+00
2.059996657935718178e-01	9.318146638637506141e-02	3.763763763763763759e+00
2.059118067525694262e-01	9.313753686587387948e-02	3.783783783783783772e+00
2.057353637329142060e-01	9.304931535604625548e-02	3.803803803803803785e+00
2.054689181271246723e-01	9.291609255315148863e-02	3.823823823823823798e+00
2.051110801421032193e-01	9.273717356064076212e-02	3.843843843843843811e+00
2.046604898808215001e-01	9.251187842999990252e-02	3.863863863863863823e+00
2.041158182275271682e-01	9.223954260335273658e-02	3.883883883883883836e+00
2.034757681907016780e-01	9.191951758494000535e-02	3.903903903903903849e+00
2.027390759258928532e-01	9.155117145253557909e-02	3.923923923923923862e+00
2.019045115952829983e-01	9.113388928723065163e-02	3.943943943943943875e+00
2.009708806708929152e-01	9.066707382503561008e-02	3.963963963963963888e+00
1.999370249607699268e-01	9.015014596997411589e-02	3.983983983983983901e+00
1.988018234199561696e-01	8.958254519956723727e-02	4.004004004004004358e+00
1.975641934020738455e-01	8.896373019062608911e-02	4.024024024024024371e+00
1.962230916990589102e-01	8.829317933911860761e-02	4.044044044044044384e+00
1.947775152887334937e-01	8.757039113395589935e-02	4.064064064064064397e+00
1.932265025211436504e-01	8.679488475016097770e-02	4.084084084084084409e+00
1.915691341811822379e-01	8.596620058018027144e-02	4.104104104104104422e+00
1.898045341610775372e-01	8.508390057012792107e-02	4.124124124124124435e+00
1.879318705698294623e-01	8.414756877450388362e-02	4.144144144144144448e+00
1.859503568189573020e-01	8.315681189906780346e-02	4.164164164164164461e+00
1.838592522135004681e-01	8.211125959633938654e-02	4.184184184184184474e+00
1.816578629871811734e-01	8.101056498317973920e-02	4.204204204204204487e+00
1.793455433794459986e-01	7.985440517931216564e-02	4.224224224224224500e+00
1.769216961687931078e-01	7.864248157398572026e-02	4.244244244244244513e+00
1.743857736300901129e-01	7.737452030463420893e-02	4.264264264264264526e+00
1.717372785419032932e-01	7.605027276054079910e-02	4.284284284284284539e+00
1.689757647534429197e-01	7.466951586631061233e-02	4.304304304304304551e+00
1.661008379757683007e-01	7.323205247747330282e-02	4.324324324324324564e+00
1.631121567226397895e-01	7.173771185090904723e-02	4.344344344344344577e+00
1.600094329637678503e-01	7.018634997147307764e-02	4.364364364364364590e+00
1.567924326987118200e-01	6.857784983894507636e-02	4.384384384384384603e+00
1.534609768201576074e-01	6.691212189966795620e-02	4.404404404404404616e+00
1.500149418629216080e-01	6.518910442104995651e-02	4.424424424424424629e+00
1.464542603612233040e-01	6.340876367020080451e-02	4.444444444444444642e+00
1.427789216657732452e-01	6.157109432247578201e-02	4.464464464464464655e+00
1.389889726369801792e-01	5.967611980807924904e-02	4.484484484484484668e+00
1.350845180108179722e-01	5.772389249499814551e-02	4.504504504504504681e+00
1.310657209824810931e-01	5.571449398082970600e-02	4.524524524524524693e+00
1.269328038597028196e-01	5.364803541944056925e-02	4.544544544544544706e+00
1.226860485318598398e-01	5.152465775551907240e-02	4.564564564564564719e+00
1.183257967281821921e-01	4.934453185368024852e-02	4.584584584584584732e+00
1.138524506931619940e-01	4.710785883617015640e-02	4.604604604604604745e+00
1.092664735993594954e-01	4.481487028926890021e-02	4.624624624624624758e+00
1.045683897636665999e-01	4.246582837142245243e-02	4.644644644644644771e+00
9.975878505839533283e-02	4.006102601878682584e-02	4.664664664664664784e+00
9.483830737142207035e-02	3.760078717530019460e-02	4.684684684684684797e+00
8.980766681543139729e-02	3.508546689730485113e-02	4.704704704704704810e+00
8.466763585204584164e-02	3.251545141561207330e-02	4.724724724724724823e+00
7.941904976614244660e-02	2.989115837266037926e-02	4.744744744744744835e+00
7.406280681141180766e-02	2.721303689529506326e-02	4.764764764764764848e+00
6.859986826025335493e-02	2.448156761971582648e-02	4.784784784784784861e+00
6.303125861078526238e-02	2.169726279498178367e-02	4.804804804804804874e+00
5.735806584825259985e-02	1.886066641371544894e-02	4.824824824824824887e+00
5.158144134176659290e-02	1.597235416047244547e-02	4.844844844844844900e+00
4.570259987356167092e-02	1.303293342636998794e-02	4.864864864864864913e+00
3.972281986824364314e-02	1.004304342371097405e-02	4.884884884884884926e+00
3.364344323245904711e-02	7.003355105818676041e-03	4.904904904904904939e+00
2.746587524119723997e-02	3.914571110187770736e-03	4.924924924924924952e+00
2.119158460697095556e-02	7.774257930746306978e-04	4.944944944944944965e+00
1.482210317523588970e-02	-2.401105248727779425e-03	4.964964964964964977e+00
8.359022977273323704e-03	-5.606383243486284459e-03	4.984984984984984990e+00
1.803991488402753585e-03	-8.836384604595988804e-03	5.005005005005005003e+00
-4.841289484832750692e-03	-1.208953434332852780e-02	5.025025025025025016e+00
-1.157506457459137744e-02	-1.536425222292233175e-02	5.045045045045045029e+00
-1.839552514628032057e-02	-1.865895395463752424e-02	5.065065065065065042e+00
-2.530080982550118873e-02	-2.197205321869255892e-02	5.085085085085085055e+00
-3.228900537661769793e-02	-2.530196369633263068e-02	5.105105105105105068e+00
-3.935814705400988295e-02	-2.864710019733071947e-02	5.125125125125125081e+00
-4.650621915622425023e-02	-3.200588052468098660e-02	5.145145145145145094e+00
-5.373115599656414637e-02	-3.537672743835994227e-02	5.165165165165165106e+00
-6.103084231663604559e-02	-3.875806970267218349e-02	5.185185185185185119e+00
-6.840311387691203060e-02	-4.214834378447900043e-02	5.205205205205205132e+00
-7.584575849822706994e-02	-4.554599568114227337e-02	5.225225225225225145e+00
-8.335651653510695036e-02	-4.894948188617530282e-02	5.245245245245245158e+00
-9.093308150947193580e-02	-5.235727091327255917e-02	5.265265265265265171e+00
-9.857310120662202135e-02	-5.576784494221221494e-02	5.285285285285285184e+00
