Time[s]	Voltage[kV]	Displacement[$\mu$-m]

0.000000000000000000e+00	0.000000000000000000e+00	0.000000000000000000e+00
3.144737390980773678e-02	1.257687636764824035e-01	2.690968602178202274e-02
6.289474781961547356e-02	2.514131601779277525e-01	5.706035362888166318e-02
9.434212172942321728e-02	3.768089453105050168e-01	9.007792109673393166e-02
1.257894956392309471e-01	5.018321207211841051e-01	1.256138302497367687e-01
1.572368695490386770e-01	6.263590565142306277e-01	1.633439510554033358e-01
1.886842434588464346e-01	7.502666135033485562e-01	2.029673812460480176e-01
2.201316173686541644e-01	8.734322649785817294e-01	2.442051426784540569e-01
2.515789912784618942e-01	9.957342178675664401e-01	2.867988446478084152e-01
2.830263651882696241e-01	1.117051533171320221e+00	3.305093388032150914e-01
3.144737390980773539e-01	1.237264245555475428e+00	3.751153785228179549e-01
3.459211130078850838e-01	1.356253481978700659e+00	4.204123144763462494e-01
3.773684869176928691e-01	1.473901579240999515e+00	4.662108310888931073e-01
4.088158608275005990e-01	1.590092200335651684e+00	5.123357579913048188e-01
4.402632347373083288e-01	1.704710449489741153e+00	5.586249222119324953e-01
4.717106086471160586e-01	1.817642985779509557e+00	6.049280778646701773e-01
5.031579825569237885e-01	1.928778135208190747e+00	6.511059303719348712e-01
5.346053564667315738e-01	2.038006001135492795e+00	6.970291978820758461e-01
5.660527303765392482e-01	2.145218572949529889e+00	7.425777688323982328e-01
5.975001042863470335e-01	2.250309832873748306e+00	7.876399396127825581e-01
6.289474781961547079e-01	2.353175860803220054e+00	8.321117047525082855e-01
6.603948521059624932e-01	2.453714937066647117e+00	8.758960899082947060e-01
6.918422260157701675e-01	2.551827643012447133e+00	9.189025932790358953e-01
7.232895999255779529e-01	2.647416959319472074e+00	9.610466627175672238e-01
7.547369738353857382e-01	2.740388361935123474e+00	1.002249223917213827e+00
7.861843477451934126e-01	2.830649915546017414e+00	1.042436262848005724e+00
8.176317216550011979e-01	2.918112364488753663e+00	1.081538451957289260e+00
8.490790955648088723e-01	3.002689221010897302e+00	1.119490817349552358e+00
8.805264694746166576e-01	3.084296850794898681e+00	1.156232444462452102e+00
9.119738433844243319e-01	3.162854555660374878e+00	1.191706224068116216e+00
9.434212172942321173e-01	3.238284653362975885e+00	1.225858623120030577e+00
9.748685912040397916e-01	3.310512554410924402e+00	1.258639468871784128e+00
1.006315965113847577e+00	3.379466835823270898e+00	1.290001795017217789e+00
1.037763339023655362e+00	3.445079311756923168e+00	1.319901665788200118e+00
1.069210712933463148e+00	3.507285100932614252e+00	1.348298064912690997e+00
1.100658086843270711e+00	3.566022690793135386e+00	1.375152754358907492e+00
1.132105460753078496e+00	3.621233998330386505e+00	1.400430197322055648e+00
1.163552834662886282e+00	3.672864427521095987e+00	1.424097448277610978e+00
1.195000208572694067e+00	3.720862923314416815e+00	1.446124097859035285e+00
1.226447582482501630e+00	3.765182022118012561e+00	1.466482190523219042e+00
1.257894956392309416e+00	3.805777898732706443e+00	1.485146184471667796e+00
1.289342330302117201e+00	3.842610409689283912e+00	1.502092891194666935e+00
1.320789704211924986e+00	3.875643132944598168e+00	1.517301446201922754e+00
1.352237078121732772e+00	3.904843403897718446e+00	1.530753266368794385e+00
1.383684452031540335e+00	3.930182347690510891e+00	1.542432028675257971e+00
1.415131825941348120e+00	3.951634907760712245e+00	1.552323645979446720e+00
1.446579199851155906e+00	3.969179870619254480e+00	1.560416241274565685e+00
1.478026573760963691e+00	3.982799886827350644e+00	1.566700131350798220e+00
1.509473947670771476e+00	3.992481488152585190e+00	1.571167829409890526e+00
1.540921321580579040e+00	3.998215100887055229e+00	1.573814020629082044e+00
1.572368695490386825e+00	3.999995055314389703e+00	1.574638175892512759e+00
1.603816069400194610e+00	3.997819591316277066e+00	1.574771011278667698e+00
1.635263443310002396e+00	3.991690860112973027e+00	1.575133783247494756e+00
1.666710817219809959e+00	3.981614922136050172e+00	1.575693584204227227e+00
1.698158191129617745e+00	3.967601741035507779e+00	1.576397057369616661e+00
1.729605565039425530e+00	3.949665173827155762e+00	1.577171524055710927e+00
1.761052938949233315e+00	3.927822957190026720e+00	1.577926563719015185e+00
1.792500312859041101e+00	3.902096689927355033e+00	1.578555842697391576e+00
1.823947686768848664e+00	3.872511811608475352e+00	1.578939320862982942e+00
1.855395060678656449e+00	3.839097577412756479e+00	1.578945649763872749e+00
1.886842434588464235e+00	3.801887029200446300e+00	1.578434797383666321e+00
1.918289808498272020e+00	3.760916962839035982e+00	1.577260818912315399e+00
1.949737182408079583e+00	3.716227891817451390e+00	1.575274400471804448e+00
1.981184556317887369e+00	3.667864007184054032e+00	1.572325683940952956e+00
2.012631930227695154e+00	3.615873133848064747e+00	1.568266842800365435e+00
2.044079304137502717e+00	3.560306683287624452e+00	1.562954518205142973e+00
2.075526678047310725e+00	3.501219602711251877e+00	1.556252101022379986e+00
2.106974051957118288e+00	3.438670320722981621e+00	1.548031698227170461e+00
2.138421425866926295e+00	3.372720689544889794e+00	1.538175887877257786e+00
2.169868799776733859e+00	3.303435923854173062e+00	1.526579175748975947e+00
2.201316173686541422e+00	3.230884536295228315e+00	1.513149105696249386e+00
2.232763547596349429e+00	3.155138269730525913e+00	1.497807101119865258e+00
2.264210921506156993e+00	3.076272026297267814e+00	1.480489013031145218e+00
2.295658295415965000e+00	2.994363793339962498e+00	1.461145385563754395e+00
2.327105669325772563e+00	2.909494566292195383e+00	1.439741381410128529e+00
2.358553043235580127e+00	2.821748268583813335e+00	1.416256580957099276e+00
2.390000417145388134e+00	2.731211668652756330e+00	1.390684456331552354e+00
2.421447791055195697e+00	2.637974294143584419e+00	1.363031812229672957e+00
2.452895164965003261e+00	2.542128343377537902e+00	1.333317948862295932e+00
2.484342538874811268e+00	2.443768594181692233e+00	1.301573751354362818e+00
2.515789912784618831e+00	2.342992310167358649e+00	1.267840703993764251e+00
2.547237286694426839e+00	2.239899144550381749e+00	1.232169861887100648e+00
2.578684660604234402e+00	2.134591041608490336e+00	1.194620775942473845e+00
2.610132034514041965e+00	2.027172135873091641e+00	1.155260424461738378e+00
2.641579408423849973e+00	1.917748649155239793e+00	1.114162175887257522e+00
2.673026782333657536e+00	1.806428785507581569e+00	1.071404767420509607e+00
2.704474156243465544e+00	1.693322624226138107e+00	1.027071376236818878e+00
2.735921530153273107e+00	1.578542010997764367e+00	9.812486905833114337e-01
2.767368904063080670e+00	1.462200447300877837e+00	9.340261133714974351e-01
2.798816277972888678e+00	1.344412978168864958e+00	8.854950015578305633e-01
2.830263651882696241e+00	1.225296078427135171e+00	8.357480071731381299e-01
2.861711025792504248e+00	1.104967537516297948e+00	7.848784874373043730e-01
2.893158399702311812e+00	9.835463430154022246e-01	7.329799867950845815e-01
2.924605773612119375e+00	8.611525629803631343e-01	6.801458017217785201e-01
2.956053147521927382e+00	7.379072272139701738e-01	6.264686098118681379e-01
2.987500521431734946e+00	6.139322075848665516e-01	5.720401614651343669e-01
3.018947895341542953e+00	4.893500975138292408e-01	5.169510325302476561e-01
3.050395269251350516e+00	3.642840907465643707e-01	4.612904269013382019e-01
3.081842643161158080e+00	2.388578595328413601e-01	4.051460279170345236e-01
3.113290017070966087e+00	1.131954323324731032e-01	3.486038834784453977e-01
3.144737390980773650e+00	-1.257892883094399381e-02	2.917483321957635156e-01
3.176184764890581214e+00	-1.383408512472671104e-01	2.346619532992845758e-01
3.207632138800389221e+00	-2.639659745064809049e-01	1.774255422458637932e-01
3.239079512710196784e+00	-3.893300734732087487e-01	1.201181034736488046e-01
3.270526886620004792e+00	-5.143091811274739245e-01	6.281685925603229526e-02
3.301974260529812355e+00	-6.387797111501962721e-01	5.597267267308470018e-03
3.333421634439619918e+00	-7.626185801322561408e-01	-5.146695061746232869e-02
3.364869008349427926e+00	-8.857033292862355189e-01	-1.083037784257912667e-01
3.396316382259235489e+00	-1.007912245540498963e+00	-1.648428694022106566e-01
3.427763756169043496e+00	-1.129124481895886101e+00	-2.210155129196833268e-01
3.459211130078851060e+00	-1.249220176925956549e+00	-2.767545966021004444e-01
3.490658503988658623e+00	-1.368080573302672853e+00	-3.319945758994917728e-01
3.522105877898466630e+00	-1.485588135230271556e+00	-3.866714406624078837e-01
3.553553251808274194e+00	-1.601626664671213840e+00	-4.407226903163701803e-01
3.585000625718082201e+00	-1.716081416249305214e+00	-4.940873081128445699e-01
3.616447999627889764e+00	-1.828839210716315167e+00	-5.467057433253375009e-01
3.647895373537697328e+00	-1.939788546869949171e+00	-5.985198941299596509e-01
3.679342747447505335e+00	-2.048819711812456479e+00	-6.494730966746584677e-01
3.710790121357312898e+00	-2.155824889440864034e+00	-6.995101181540328561e-01
3.742237495267120462e+00	-2.260698267061568956e+00	-7.485771557219049743e-01
3.773684869176928469e+00	-2.363336140023831078e+00	-7.966218289051325563e-01
3.805132243086736032e+00	-2.463637014268716730e+00	-8.435931920554968766e-01
3.836579616996544040e+00	-2.561501706692103308e+00	-8.894417344961521588e-01
3.868026990906351603e+00	-2.656833443222454516e+00	-9.341193914028782519e-01
3.899474364816159166e+00	-2.749537954516439342e+00	-9.775795581964553671e-01
3.930921738725967174e+00	-2.839523569177713203e+00	-1.019777099056807357e+00
3.962369112635774737e+00	-2.926701304406711834e+00	-1.060668369100840280e+00
3.993816486545582745e+00	-3.010984953991818536e+00	-1.100211225406031224e+00
4.025263860455390308e+00	-3.092291173554869932e+00	-1.138365049191787604e+00
4.056711234365198315e+00	-3.170539562966738778e+00	-1.175090764920097675e+00
4.088158608275005435e+00	-3.245652745851461241e+00	-1.210350857443301731e+00
4.119605982184813442e+00	-3.317556446100329737e+00	-1.244109397804595396e+00
4.151053356094621449e+00	-3.386179561320241671e+00	-1.276332058432142480e+00
4.182500730004428569e+00	-3.451454233143722572e+00	-1.306986138639998130e+00
4.213948103914236576e+00	-3.513315914331073486e+00	-1.336040582647087360e+00
4.245395477824044583e+00	-3.571703432598273498e+00	-1.363466000472786543e+00
4.276842851733852591e+00	-3.626559051107557163e+00	-1.389234692521052361e+00
4.308290225643659710e+00	-3.677828525560820516e+00	-1.413320661128466327e+00
4.339737599553467717e+00	-3.725461157839415893e+00	-1.435699633428949795e+00
4.371184973463275725e+00	-3.769409846137274478e+00	-1.456349081732636774e+00
4.402632347373082844e+00	-3.809631131537804638e+00	-1.475248234546011394e+00
4.434079721282890851e+00	-3.846085240988501130e+00	-1.492378097295672168e+00
4.465527095192698859e+00	-3.878736126630750292e+00	-1.507721466602385041e+00
4.496974469102505978e+00	-3.907551501445969411e+00	-1.521262939622784804e+00
4.528421843012313985e+00	-3.932502871182816495e+00	-1.532988931218994155e+00
4.559869216922121993e+00	-3.953565562533890798e+00	-1.542887682843110841e+00
4.591316590831930000e+00	-3.970718747534081050e+00	-1.550949270395313828e+00
4.622763964741737119e+00	-3.983945464156417149e+00	-1.557165615478156351e+00
4.654211338651545127e+00	-3.993232633085072703e+00	-1.561530489747466444e+00
4.685658712561353134e+00	-3.998571070648919701e+00	-1.564039520195058541e+00
4.717106086471160253e+00	-3.999955497902856205e+00	-1.564714178031322955e+00
4.748553460380968261e+00	-3.997384545847923576e+00	-1.564892464629122237e+00
4.780000834290776268e+00	-3.990860756785045815e+00	-1.565331475757766544e+00
4.811448208200583387e+00	-3.980390581801064531e+00	-1.565995600123673448e+00
4.842895582110391395e+00	-3.965984374389539546e+00	-1.566828566828743163e+00
4.874342956020199402e+00	-3.947656380212640315e+00	-1.567754500673619322e+00
4.905790329930006521e+00	-3.925424723014238726e+00	-1.568679710535779037e+00
4.937237703839814529e+00	-3.899311386698137483e+00	-1.569494531110445124e+00
4.968685077749622536e+00	-3.869342193589161205e+00	-1.570075526647754405e+00
5.000132451659430544e+00	-3.835546778898599296e+00	-1.570288116076723695e+00
5.031579825569237663e+00	-3.797958561419254586e+00	-1.569989062229359078e+00
5.063027199479045670e+00	-3.756614710479071917e+00	-1.569029298455226540e+00
5.094474573388853678e+00	-3.711556109186037844e+00	-1.567256685686778006e+00
5.125921947298660797e+00	-3.662827314000677958e+00	-1.564518711438757315e+00
5.157369321208468804e+00	-3.610476510676137174e+00	-1.560665243861328211e+00
5.188816695118276812e+00	-3.554555466609424119e+00	-1.555550875792854004e+00
5.220264069028083931e+00	-3.495119479650915739e+00	-1.549037159544075726e+00
5.251711442937891938e+00	-3.432227323422751386e+00	-1.540994753160395137e+00
5.283158816847699946e+00	-3.365941189200201578e+00	-1.531305075185133369e+00
5.314606190757507953e+00	-3.296326624413457917e+00	-1.519861701923853170e+00
5.346053564667315072e+00	-3.223452467830678181e+00	-1.506571594728481012e+00
5.377500938577123080e+00	-3.147390781486361089e+00	-1.491355842998401071e+00
5.408948312486931087e+00	-3.068216779422395568e+00	-1.474150203129512615e+00
5.440395686396738206e+00	-2.986008753312210384e+00	-1.454905319613997605e+00
5.471843060306546214e+00	-2.900847995041590632e+00	-1.433586677694409062e+00
5.503290434216354221e+00	-2.812818716322736279e+00	-1.410174335160071291e+00
5.534737808126161340e+00	-2.722007965421012532e+00	-1.384662452490317941e+00
5.566185182035969348e+00	-2.628505541076756380e+00	-1.357058548034767664e+00
5.597632555945777355e+00	-2.532403903707286297e+00	-1.327382758116212313e+00
5.629079929855584474e+00	-2.433798083976871585e+00	-1.295666873907598049e+00
5.660527303765392482e+00	-2.332785588825095680e+00	-1.261953329372472066e+00
5.691974677675200489e+00	-2.229466305046570174e+00	-1.226294191824102375e+00
5.723422051585008496e+00	-2.123942400517282003e+00	-1.188749960624517987e+00
5.754869425494815616e+00	-2.016318223165301404e+00	-1.149388584450134143e+00
5.786316799404623623e+00	-1.906700197785711870e+00	-1.108284402060617513e+00
5.817764173314431631e+00	-1.795196720801849777e+00	-1.065517089143285467e+00
5.849211547224238750e+00	-1.681918053076860708e+00	-1.021170704772349058e+00
5.880658921134046757e+00	-1.566976210881591669e+00	-9.753328013305692101e-01
5.912106295043854765e+00	-1.450484855126669137e+00	-9.280935620897048377e-01
5.943553668953661884e+00	-1.332559178968234059e+00	-8.795450947159644262e-01
5.975001042863469891e+00	-1.213315793898509298e+00	-8.297807634055525128e-01
6.006448416773277899e+00	-1.092872614433865186e+00	-7.788945616528983873e-01
6.037895790683085906e+00	-9.713487415143493564e-01	-7.269806256801997213e-01
6.069343164592893025e+00	-8.488643447300348033e-01	-6.741327834959984777e-01
6.100790538502701033e+00	-7.255405434906064821e-01	-6.204441952131911631e-01
6.132237912412509040e+00	-6.014992872557479719e-01	-5.660070520696655061e-01
6.163685286322316159e+00	-4.768632349446970120e-01	-5.109123172924119327e-01
6.195132660232124167e+00	-3.517556336442475562e-01	-4.552495416638145942e-01
6.226580034141932174e+00	-2.263001967351709054e-01	-3.991067134424000074e-01
6.258027408051739293e+00	-1.006209815575073580e-01	-3.425701450023219685e-01
6.289474781961547301e+00	2.515773326426810549e-02	-2.857244168584557875e-01
6.320922155871355308e+00	1.509115707148668828e-01	-2.286523032208932771e-01
6.352369529781162427e+00	2.765161783791338923e-01	-1.714347751938400943e-01
6.383816903690970435e+00	4.018473514086685627e-01	-1.141509757201638470e-01
6.415264277600778442e+00	5.267811553424922577e-01	-5.687825208225373574e-02
6.446711651510586449e+00	6.511940486603762235e-01	3.078456781070194881e-04
6.478159025420393569e+00	7.749630049475870752e-01	5.733351506229219380e-02
6.509606399330201576e+00	8.979656345502879944e-01	1.141266863286376221e-01
6.541053773240009583e+00	1.020080305601240411e+00	1.706169706676052833e-01
6.572501147149816703e+00	1.141186264296195407e+00	2.267356343392716855e-01
6.603948521059624710e+00	1.261163754302007112e+00	2.824155539627736244e-01
6.635395894969432717e+00	1.379894135178360237e+00	3.375911888774327241e-01
6.666843268879239837e+00	1.497259999696071597e+00	3.921985487409885285e-01
6.698290642789047844e+00	1.613145289935921989e+00	4.461751590073809726e-01
6.729738016698855851e+00	1.727435412053187624e+00	4.994600294717721489e-01
6.761185390608662971e+00	1.840017349594439855e+00	5.519936691202829149e-01
6.792632764518470978e+00	1.950779775254535053e+00	6.037180227012233225e-01
6.824080138428278985e+00	2.059613160963248646e+00	6.545764935051059386e-01
6.855527512338086993e+00	2.166409886192758982e+00	7.045139282562431493e-01
6.886974886247894112e+00	2.271064344378828093e+00	7.534765885017158382e-01
6.918422260157702119e+00	2.373473047350479259e+00	8.014121968331456847e-01
6.949869634067510127e+00	2.473534727664859822e+00	8.482698908946287863e-01
6.981317007977317246e+00	2.571150438746153899e+00	8.940002601210707001e-01
7.012764381887125253e+00	2.666223652729485583e+00	9.385553531327265331e-01
7.044211755796933261e+00	2.758660355913046036e+00	9.818886650941209826e-01
7.075659129706740380e+00	2.848369141724098608e+00	1.023955188089271884e+00
7.107106503616548387e+00	2.935261301106908416e+00	1.064711393042272247e+00
7.138553877526356395e+00	3.019250910243193697e+00	1.104115263859386742e+00
7.170001251436164402e+00	3.100254915518405596e+00	1.142126317503707078e+00
7.201448625345971521e+00	3.178193215649772529e+00	1.178705608093782331e+00
7.232895999255779529e+00	3.252988740894930064e+00	1.213815766114791916e+00
7.264343373165587536e+00	3.324567529262773213e+00	1.247421003946224571e+00
7.295790747075394655e+00	3.392858799651206958e+00	1.279487142342198069e+00
7.327238120985202663e+00	3.457795021839458194e+00	1.309981633285478120e+00
7.358685494895010670e+00	3.519311983265716481e+00	1.338873575486722034e+00
7.390132868804817790e+00	3.577348852524107059e+00	1.366133738450759916e+00
7.421580242714625797e+00	3.631848239518183252e+00	1.391734581165229523e+00
7.453027616624433804e+00	3.682756252211451642e+00	1.415650272048225800e+00
7.484474990534240924e+00	3.730022549918828201e+00	1.437856703473078701e+00
7.515922364444048931e+00	3.773600393086323557e+00	1.458331516205687572e+00
7.547369738353856938e+00	3.813446689509716325e+00	1.477054117224872787e+00
7.578817112263664946e+00	3.849522036946533721e+00	1.494005680080770393e+00
7.610264486173472065e+00	3.881790762079186941e+00	1.509169175278594954e+00
7.641711860083280072e+00	3.910220955790744135e+00	1.522529387060152617e+00
7.673159233993088080e+00	3.934784504718439990e+00	1.534072902493927471e+00
7.704606607902895199e+00	3.955457119053741977e+00	1.543788140963299416e+00
7.736053981812703206e+00	3.972218356561470376e+00	1.551665371221539580e+00
7.767501355722511214e+00	3.985051642794217308e+00	1.557696691210041173e+00
7.798948729632318333e+00	3.993944287482089628e+00	1.561876052393103675e+00
7.830396103542126340e+00	3.998887497081554887e+00	1.564199278691664974e+00
7.861843477451934348e+00	3.999876383470987840e+00	1.564730913729824646e+00
7.893290851361742355e+00	3.996909968784317702e+00	1.564936210038406106e+00
7.924738225271549474e+00	3.989991186377999099e+00	1.565399614194306288e+00
7.956185599181357482e+00	3.979126877930341255e+00	1.566083381114079076e+00
7.987632973091165489e+00	3.964327786676078880e+00	1.566929228911893679e+00
8.019080347000972608e+00	3.945608546782858994e+00	1.567859416315862564e+00
8.050527720910780616e+00	3.922987668880159262e+00	1.568778563316588492e+00
8.081975094820588623e+00	3.896487521754945504e+00	1.569575530332840696e+00
8.113422468730396631e+00	3.866134310232165916e+00	1.570125643516729674e+00
8.144869842640204638e+00	3.831958049261955601e+00	1.570293345959656195e+00
8.176317216550010869e+00	3.793992534239182923e+00	1.569934693799364123e+00
8.207764590459818876e+00	3.752275307584665320e+00	1.568900191469565053e+00
8.239211964369626884e+00	3.706847621621141453e+00	1.567037547016753907e+00
